time,open,high,low,close,Volume,atr 14
1593378000,1771.478,1775.692,1765.944,1772.65,32188,22.664487676082500
1593464400,1772.65,1786.023,1764.646,1780.872,31474,22.572524270648100
1593550800,1780.872,1789.265,1759.284,1770.477,44515,23.101701108458900
1593637200,1770.477,1779.69,1757.665,1775.74,35026,23.024793886426100
1593723600,1775.74,1777.192,1772.776,1775.086,12571,21.695594323110000
1593982800,1775.086,1787.156,1770.1,1784.366,26503,21.364194728602100
1594069200,1784.366,1797.415,1773.788,1795.25,32537,21.52582367655910
1594155600,1795.25,1818.092,1791.529,1809.006,33419,21.885621985376300
1594242000,1809.006,1816.064,1795.734,1803.382,40038,21.774506129278000
1594328400,1803.382,1810.692,1794.246,1798.446,24302,21.39389854861530
1594587600,1798.446,1813.472,1798.115,1802.342,34336,20.962691509428500
1594674000,1802.342,1810.918,1790.766,1809.406,43905,20.904784973040700
1594760400,1809.406,1815.236,1802.473,1810.36,30682,20.323228903537800
1594846800,1810.36,1813.494,1795.118,1797.436,26520,20.1841411247137
1594933200,1797.436,1811.924,1795.99,1810.046,20078,19.880559615805600
1595192400,1810.046,1820.648,1805.878,1817.312,28696,19.515519643248000
1595278800,1817.312,1843.476,1815.852,1841.673,37033,20.09469681158750
1595365200,1841.673,1872.234,1841.032,1871.828,75073,20.888075610759800
1595451600,1871.828,1898.374,1863.849,1887.534,78679,21.86214163856270
1595538000,1887.534,1906.585,1881.586,1901.637,54514,22.086202950093900
1595797200,1901.637,1945.646,1900.01,1942.076,86023,23.76833131080150
1595883600,1942.076,1981.356,1907.066,1958.672,141981,27.37702193145850
1595970000,1958.672,1980.842,1941.526,1970.91,81900,28.229806079211500
1596056400,1970.91,1971.65,1939.339,1956.059,87326,28.521319930696400
1596142800,1956.059,1983.102,1955.344,1975.962,89727,28.466797078503800
1596402000,1975.962,1986.765,1960.54,1976.742,56967,28.306668715753500
1596488400,1976.742,2020.03,1966.855,2019.413,65982,30.0829780931997
1596574800,2019.413,2055.926,2009.676,2038.154,108132,31.237765372256900
1596661200,2038.154,2069.816,2034.652,2063.31,92898,31.518210702809900
1596747600,2063.31,2075.282,2015.531,2035.23,130891,33.53483850975210
1597006800,2035.23,2049.915,2019.562,2027.745,76717,33.30756433048410
1597093200,2027.745,2030.108,1901.616,1912.075,169976,40.10645259259240
1597179600,1912.075,1949.502,1862.899,1916.642,187634,43.42763455026440
1597266000,1916.642,1966.42,1913.058,1953.57,119872,44.13723208238830
1597352400,1953.57,1962.432,1932.32,1944.714,95748,43.13542979078920
1597611600,1944.714,1991.091,1929.648,1985.223,87136,44.44311337716140
1597698000,1985.223,2015.726,1976.038,2001.934,109838,44.10346242164990
1597784400,2001.934,2006.742,1924.778,1929.572,136927,46.807786534389100
1597870800,1929.572,1955.47,1924.864,1946.966,129805,45.65051606764710
1597957200,1946.966,1956.087,1911.586,1940.498,107006,45.56840777710080
1598216400,1940.498,1961.893,1923.931,1929.08,85057,45.02509293587940
1598302800,1929.08,1937.739,1914.389,1928.2,75297,43.47687201188800
1598389200,1928.2,1954.742,1902.726,1954.034,80435,44.08680972532450
1598475600,1954.034,1977.187,1910.19,1929.271,128065,45.72325188780140
1598562000,1929.271,1973.898,1923.188,1965.026,97119,46.079448181529800
1598821200,1965.026,1976.776,1954.416,1967.646,78047,44.38520188284910
1598907600,1967.646,1992.565,1963.354,1970.486,84372,43.30133031978850
1598994000,1970.486,1973.334,1932.681,1942.888,91768,43.112163868375
1599080400,1942.888,1951.178,1921.905,1930.673,96499,42.12365216349110
1599166800,1930.673,1949.496,1916.696,1934.024,97600,41.45767700895600
1599426000,1934.024,1941.477,1924.636,1928.448,33374,39.69934293688770
1599512400,1928.448,1940.856,1906.628,1931.694,88080,39.30853272711010
1599598800,1931.694,1950.852,1920.169,1946.534,57249,38.69242324660220
1599685200,1946.534,1966.57,1941.478,1946.27,71452,37.72096444327350
1599771600,1946.27,1954.773,1937.242,1940.456,54543,36.278824125896800
1600030800,1940.456,1962.535,1937.25,1956.442,40473,35.49355097404700
1600117200,1956.442,1972.221,1948.468,1954.198,46398,34.65494019018650
1600203600,1954.198,1973.782,1949.914,1959.59,64104,33.88444446231600
1600290000,1959.59,1960.987,1932.886,1944.276,67548,33.47134128643630
1600376400,1944.276,1960.134,1944.147,1950.506,42808,32.222459765976600
1600635600,1950.506,1955.624,1882.428,1912.674,99324,35.149141211264000
1600722000,1912.674,1920.057,1894.7,1900.038,93987,34.44970255331660
1600808400,1900.038,1905.438,1855.851,1863.45,115073,35.53093808522250
1600894800,1863.45,1877.119,1848.842,1867.818,117358,35.01279965056370
1600981200,1867.818,1875.22,1852.619,1861.62,78215,34.12624253266630
1601240400,1861.62,1883.101,1848.801,1881.414,69930,34.13865378033300
1601326800,1881.414,1899.083,1875.684,1897.205,56840,33.3715356531664
1601413200,1897.205,1902.349,1881.524,1885.5,73757,32.475354535083100
1601499600,1885.5,1912.662,1884.72,1906.12,73585,32.151543496862900
1601586000,1906.12,1917.165,1889.866,1899.168,74993,31.804933247086900
1601845200,1899.168,1918.694,1887.132,1913.445,47095,31.787580872295000
1601931600,1913.445,1921.277,1874.808,1878.177,65886,32.83625366713110
1602018000,1878.177,1898.066,1872.898,1887.592,57560,32.28852126233600
1602104400,1887.592,1900.687,1882,1893.608,43660,31.31698402931200
1602190800,1893.608,1930.57,1893.602,1930.521,43790,31.720628027218300
1602450000,1930.521,1933.292,1918.643,1922.702,47331,30.501226025274100
1602536400,1922.702,1925.508,1886.578,1891.204,64236,31.10328130918310
1602622800,1891.204,1912.962,1882.434,1901.679,46226,31.062189787098600
1602709200,1901.679,1908.999,1889.644,1908.256,65572,30.225961945163000
1602795600,1908.256,1914.046,1897.878,1899.33,38183,29.22182180622280
1603054800,1899.33,1918.54,1897.166,1904.4,39284,28.661263105778300
1603141200,1904.4,1914.125,1894.605,1907.169,42193,28.008315741079900
1603227600,1907.169,1931.401,1907.169,1924.456,43930,27.738578902431300
1603314000,1924.456,1925.94,1894.775,1904.014,43312,27.98332326654330
1603400400,1904.014,1914.359,1894.483,1902.04,34605,27.40422874750450
1603659600,1902.04,1908.594,1891.508,1902.272,44045,26.667212408397100
1603746000,1902.272,1911.354,1897.914,1907.78,28852,25.72241152208300
1603832400,1907.78,1910.826,1869.46,1877.246,57601,26.83981069907710
1603918800,1877.246,1885.054,1860.08,1867.959,60575,26.706538506285900
1604005200,1867.959,1889.756,1864.396,1878.952,56821,26.610357184408300
1604268000,1878.952,1896.084,1873.504,1895.774,41388,26.322474528379100
1604354400,1895.774,1910.633,1887.096,1909.81,39630,26.123512062066300
1604440800,1909.81,1916.484,1882.212,1903.015,125267,26.705546914775900
1604527200,1903.015,1952.786,1902.332,1949.632,68918,28.401864992291900
1604613600,1949.632,1960.386,1935.722,1951.193,73663,28.134874635699600
1604872800,1951.193,1965.572,1850.53,1861.914,135189,34.342526447435400
1604959200,1861.914,1890.513,1860.146,1877.281,74820,34.05856027261850
1605045600,1877.281,1884.473,1856.448,1865.42,52714,33.62759168171720
1605132000,1865.42,1883.878,1862.787,1876.974,46208,32.732120847308800
1605218400,1876.974,1896.882,1874.198,1889.565,35941,32.01439792964390
1605477600,1889.565,1899.112,1864.541,1888.839,56153,32.19701236324080
1605564000,1888.839,1893.536,1876.988,1880.388,38883,31.079225765866400
1605650400,1880.388,1884.856,1863.772,1872.464,42880,30.36528106830460
1605736800,1872.464,1874.116,1852.792,1866.12,46815,29.719475277711400
1605823200,1866.12,1879.818,1860.967,1870.987,37399,28.9431556150177
1606082400,1870.987,1876.139,1831.073,1837.828,52128,30.094787356802100
1606168800,1837.828,1839.038,1800.424,1807.459,67568,30.703302545602000
1606255200,1807.459,1817.771,1801.806,1807.846,40606,29.650566649487600
1606341600,1807.846,1818.336,1805.857,1810.474,23945,28.424026174524200
1606428000,1810.474,1813.868,1774.41,1786.92,43734,29.21216716205810
1606687200,1786.92,1789.937,1764.57,1776.881,58866,28.93751236476830
1606773600,1776.881,1817.362,1775.897,1815.137,45782,29.83233291014200
1606860000,1815.137,1832.518,1807.543,1830.705,42996,29.48538055941760
1606946400,1830.705,1843.984,1823.772,1840.936,46938,28.822996233744900
1607032800,1840.936,1848.202,1829.276,1838.79,46133,28.116067931334500
1607292000,1838.79,1868.576,1822.253,1862.424,47678,29.416563079096400
1607378400,1862.424,1875.306,1856.95,1870.434,40650,28.6265228591609
1607464800,1870.434,1870.62,1825.579,1840.086,60583,29.798985512078000
1607551200,1840.086,1850.015,1828.77,1836.693,52397,29.187986546929600
1607637600,1836.693,1847.751,1824.184,1839.303,44164,28.78648750786320
1607896800,1839.303,1839.624,1819.418,1827.059,44731,28.173595543015800
1607983200,1827.059,1855.442,1825.568,1853.45,41659,28.295053004229000
1608069600,1853.45,1865.65,1844.844,1864.552,59833,27.760120646784000
1608156000,1864.552,1896.318,1862.129,1885.546,51208,28.2193263148709
1608242400,1885.546,1889.722,1877.494,1881.479,43226,27.077088720951600
1608501600,1881.479,1906.809,1855.148,1876.848,98895,28.833082383740700
1608588000,1876.848,1884.336,1859.032,1860.254,55239,28.581005070616400
1608674400,1860.254,1878.611,1857.132,1873.37,46778,28.073718994143800
1608760800,1873.37,1883.725,1869.582,1879.555,28388,27.078667637419200
1609106400,1879.555,1900.296,1869.309,1873.694,58439,27.357834234746400
1609192800,1873.694,1886.44,1871.868,1878.349,42724,26.444560360836000
1609279200,1878.349,1894.581,1876.199,1894.508,32040,25.86866319220480
1609365600,1894.508,1901.026,1885.528,1898.391,37540,25.127901535618800
1609711200,1898.391,1944.518,1898.391,1942.887,63961,26.62783714021740
1609797600,1942.887,1953.093,1934.443,1950.076,54638,26.057991630201900
1609884000,1950.076,1959.406,1900.9,1919.062,101257,28.375706513758900
1609970400,1919.062,1927.725,1906.982,1913.589,65904,27.830513191347500
1610056800,1913.589,1917.545,1828.276,1849.215,118781,32.21897653482270
1610316000,1849.215,1856.825,1817.16,1843.61,98790,32.750835353764000
1610402400,1843.61,1863.87,1836.767,1854.738,66885,32.3474185427808
1610488800,1854.738,1863.108,1842.094,1845.272,51493,31.53788864686790
1610575200,1845.272,1857.593,1829.486,1846.258,66884,31.2928251720916
1610661600,1846.258,1856.992,1823.462,1828.586,65628,31.452623374085100
1610920800,1828.586,1840.85,1802.955,1837.785,46426,31.912793133079000
1611007200,1837.785,1845.67,1833.145,1840.025,49685,30.527950766430500
1611093600,1840.025,1871.8,1832.57,1871.65,57237,31.14952571168550
1611180000,1871.65,1875.17,1858.28,1869.92,53972,30.130988160850800
1611266400,1869.92,1870.84,1837.46,1855.8,62970,30.363060435075700
1611525600,1855.8,1867.95,1847.27,1855.99,57517,29.67141326114170
1611612000,1855.99,1861.795,1848.44,1850.78,46477,28.505955171060200
1611698400,1850.78,1853.22,1831.426,1844.44,73175,28.026529801698800
1611784800,1844.44,1864.22,1834.13,1842.66,94088,28.173920530148800
1611871200,1842.66,1875.736,1839.646,1847.74,106918,28.739354777995400
1612130400,1847.74,1871.89,1847.74,1860.77,127047,28.411543722424300
1612216800,1860.77,1864.11,1829.605,1838.03,95565,28.84679059939400
1612303200,1838.03,1844.95,1829.8,1834.07,57533,27.86844841372300
1612389600,1834.07,1834.82,1785.02,1793.995,86653,29.434987812742800
1612476000,1793.995,1815.2,1792.13,1814.2,65713,28.98034582611830
1612735200,1814.2,1839.23,1807.865,1830.765,54930,29.15067826710980
1612821600,1830.765,1848.63,1828.93,1838.77,55744,28.475629819459100
1612908000,1838.77,1855.455,1834.175,1843.385,59347,27.961656260926300
1612994400,1843.385,1847.574,1821.18,1825.64,49614,27.849680813717300
1613080800,1825.64,1830.816,1810.605,1824.4,50213,27.304060755594600
1613340000,1824.4,1827.1,1816.065,1818.776,24588,26.141984987337900
1613426400,1818.776,1826.5,1789.576,1794.436,82041,26.912128916813700
1613512800,1794.436,1795.158,1769.526,1776.305,83795,26.82069113704130
1613599200,1776.305,1789.69,1768.47,1775.865,72463,26.420641770109800
1613685600,1775.865,1791.696,1760.754,1784.185,81885,26.743595929387700
1613944800,1784.185,1812.722,1780.78,1809.9,79193,27.11491050586000
1614031200,1809.9,1816.1,1795.704,1805.88,81239,26.63498832687000
1614117600,1805.88,1813.966,1783.65,1805.045,84820,26.89791773209350
1614204000,1805.045,1805.53,1765.546,1770.55,141770,27.832637894086800
1614290400,1770.55,1775.904,1717.27,1734.375,153253,30.032735187366400
1614549600,1734.375,1759.95,1719.78,1724.94,87880,30.756825531125900
1614636000,1724.94,1739.19,1707.336,1738.348,99689,30.835195136045500
1614722400,1738.348,1741.02,1701.964,1710.915,80651,31.42239548347080
1614808800,1710.915,1723.27,1690.525,1697.635,115520,31.51686723465150
1614895200,1697.635,1707.84,1687.29,1703.12,90872,30.733519575033500
1615154400,1703.12,1714.45,1676.866,1683.494,63396,31.22283960538830
1615240800,1683.494,1720.682,1680.25,1715.895,72499,31.880636776431900
1615327200,1715.895,1726.845,1708.284,1726.745,64710,30.92923414954390
1615413600,1726.745,1739.89,1719.325,1722.625,58832,30.188931710290800
1615500000,1722.625,1729.386,1699.224,1726.965,70543,30.187008016698600
1615755600,1726.965,1734.583,1721.718,1731.756,52935,28.949721729791600
1615842000,1731.756,1741.196,1726.205,1731.69,48361,27.9526701776636
1615928400,1731.69,1751.7,1724.066,1745.355,62891,27.929908022116200
1616014800,1745.355,1755.565,1719.25,1736.434,81141,28.528843163393600
1616101200,1736.434,1746.77,1728.54,1745.054,64579,27.793211508865500
1616360400,1745.054,1747.046,1727.345,1738.92,51497,27.215196401089400
1616446800,1738.92,1742.602,1724.755,1727.006,52516,26.5460395152973
1616533200,1727.006,1738.615,1723.894,1734.24,43193,25.70139383563320
1616619600,1734.24,1745.532,1721.844,1726.655,58805,25.557579990230800
1616706000,1726.655,1736.76,1721.695,1732.77,44533,24.80810999092860
1616965200,1732.77,1733.371,1705.795,1711.976,46306,25.00581642014800
1617051600,1711.976,1714.446,1678.778,1684.81,65458,25.76740096156600
1617138000,1684.81,1715.284,1677.954,1707.475,61734,26.593300892882700
1617224400,1707.475,1730.64,1705.867,1729.88,52929,26.463279400534000
1617570000,1729.88,1733.65,1721.366,1728.3,43118,25.450473729067300
1617656400,1728.3,1745.445,1727.305,1743.52,45726,24.92829703413390
1617742800,1743.52,1744.46,1730.73,1737.765,44499,24.128418674552900
1617829200,1737.765,1758.724,1733.26,1755.61,46363,24.223817340656300
1617915600,1755.61,1757.435,1731.275,1743.775,51687,24.36211610203790
1618174800,1743.775,1745.078,1727.5,1732.91,46146,23.8775363804638
1618261200,1732.91,1749,1723.792,1745.45,54392,23.97256949614500
1618347600,1745.45,1749.56,1732.655,1736.45,46614,23.467743103563200
1618434000,1736.45,1769.662,1734.49,1763.8,50384,24.303761453308700
1618520400,1763.8,1783.898,1759.915,1776.68,50014,24.280849920929500
1618779600,1776.68,1790.104,1766.826,1771.546,55947,24.20921778372020
1618866000,1771.546,1780.512,1763.72,1778.82,49129,23.67941651345450
1618952400,1778.82,1797.724,1776.315,1793.69,44414,23.51724390535060
1619038800,1793.69,1797.934,1777.473,1784.22,49256,23.29894076925410
1619125200,1784.22,1796.046,1770.125,1777.35,46663,23.486230714307400
1619384400,1777.35,1783.56,1768.85,1781.376,41651,22.859357091856900
1619470800,1781.376,1785.656,1773.823,1776.66,39760,22.071760156724200
1619557200,1776.66,1782.575,1762.763,1781.69,54666,21.910348716958200
1619643600,1781.69,1790.03,1756.132,1772,54648,22.76660952288980
1619730000,1772,1773.745,1764.31,1771.945,48482,21.81435169982620
1619989200,1771.945,1798.07,1766.29,1793.725,44144,22.526183721267200
1620075600,1793.725,1799.16,1770.96,1778.85,63203,22.931456312605300
1620162000,1778.85,1788.03,1770.444,1786.935,51855,22.549638004562000
1620248400,1786.935,1818.13,1782.048,1815.08,67240,23.51623528995050
1620334800,1815.08,1843.4,1812.91,1831.355,108227,24.014361340668300
1620594000,1831.355,1845.54,1830.068,1835.69,97770,23.40419267347770
1620680400,1835.69,1841.845,1818.022,1837.485,91407,23.434107482515000
1620766800,1837.485,1843.716,1813.41,1815.55,75255,23.924956948049600
1620853200,1815.55,1828.835,1808.866,1826.525,58234,23.642388594617500
1620939600,1826.525,1846.296,1819.845,1843.165,46020,23.84300369500200
1621198800,1843.165,1868.525,1842.02,1866.955,42685,24.03314628821610
1621285200,1866.955,1875.04,1863.285,1869.5,42633,23.156135839057800
1621371600,1869.5,1890.145,1852.23,1869.515,83611,24.210340421982300
1621458000,1869.515,1883.985,1863.955,1877.04,49061,23.911744677555000
1621544400,1877.04,1889.42,1870.19,1881.245,47442,23.5773343434439
1621803600,1881.245,1887.07,1875.2,1880.68,38364,22.74109617605500
1621890000,1880.68,1900.3,1872.755,1899.17,50957,23.08423216347970
1621976400,1899.17,1912.785,1890.74,1896.68,50768,23.0100012946597
1622062800,1896.68,1903.706,1888.315,1896.672,48615,22.46578691646970
1622149200,1896.672,1906.12,1882.25,1903.456,48243,22.56608785100760
1622408400,1903.456,1910.655,1902.19,1906.676,20511,21.55886729022130
1622494800,1906.676,1916.615,1892.445,1900.24,44722,21.74537676949120
1622581200,1900.24,1909.14,1894.455,1908.35,35944,21.241064143099000
1622667600,1908.35,1909.69,1865.36,1870.545,63833,22.890273847163400
1622754000,1870.545,1896.24,1856.04,1891.395,55936,24.126682858080300
1623013200,1891.395,1900.196,1881.606,1899.14,36588,23.731205511074500
1623099600,1899.14,1903.93,1883.785,1892.94,43086,23.475047974569200
1623186000,1892.94,1899.076,1887.435,1888.685,36216,22.629758833528600
1623272400,1888.685,1899.99,1869.945,1898.445,55458,23.159418916848000
1623358800,1898.445,1903.12,1874.54,1877.82,48133,23.546603279930200
1623618000,1877.82,1878.08,1844.63,1866.14,54411,24.253988759935200
1623704400,1866.14,1869.205,1851.665,1858.82,44111,23.774418134225500
1623790800,1858.82,1863.32,1803.636,1812.055,70418,26.339388267495100
1623877200,1812.055,1825.326,1767.295,1773.37,104751,28.603074819816900
1623963600,1773.37,1797.316,1761.04,1764.235,84687,29.151140904115700
1624222800,1764.235,1786.625,1764.235,1782.995,65230,28.668202268107500
1624309200,1782.995,1790.2,1772.39,1778.865,51060,27.892616391814100
1624395600,1778.865,1794.985,1773.33,1779.05,46336,27.447072363827300
1624482000,1779.05,1788.04,1772.875,1774.98,39277,26.569781480696800
1624568400,1774.98,1790.446,1773.795,1781.646,38444,25.861297089218500
1624827600,1781.646,1785.83,1770.78,1778.26,38333,25.08906158284570
1624914000,1778.26,1779.034,1750.74,1761.086,50769,25.317985755499600
1625000400,1761.086,1774.45,1753.44,1770.45,43203,25.01027248724960
1625086800,1770.45,1782.89,1765.74,1776.655,43395,24.44882445244610
1625173200,1776.655,1795.1,1774.356,1787.45,53927,24.18419413441420
1625432400,1787.45,1794.745,1784.52,1791.97,19257,23.1871088390989
1625518800,1791.97,1815.046,1790.15,1797.21,55843,23.309172493449000
1625605200,1797.21,1809.89,1793.995,1803.716,47696,22.77958874391690
1625691600,1803.716,1818.54,1794.215,1802.495,60545,22.889975262208600
1625778000,1802.495,1812.445,1796.74,1808.465,38768,22.376762743479400
1626037200,1808.465,1810.956,1791.645,1806.145,37374,22.157779690373700
1626123600,1806.145,1817.26,1798.67,1807.686,48685,21.902938283918400
1626210000,1807.686,1829.88,1804.586,1827.385,43258,22.14515697792430
1626296400,1827.385,1834.195,1820.375,1829.53,36617,21.55050290807250
1626382800,1829.53,1832.066,1809.03,1812.255,45372,21.656609843210200
1626642000,1812.255,1817.42,1795.12,1812.845,49952,21.70256628298090
1626728400,1812.845,1825.006,1805.13,1810.345,45189,21.572097262768000
1626814800,1810.345,1813.795,1794.666,1803.505,41983,21.397590315427400
1626901200,1803.505,1808.116,1792.835,1806.66,39534,20.960691007182600
1626987600,1806.66,1810.37,1789.69,1801.975,35913,20.9406416495267
1627246800,1801.975,1811.605,1796.445,1797.575,37417,20.527738674560500
1627333200,1797.575,1805.29,1793.695,1798.995,38613,19.88968591209190
1627419600,1798.995,1809.86,1792.795,1806.895,49317,19.68792263265680
1627506000,1806.895,1832.73,1806.895,1827.975,41190,20.126999587467000
1627592400,1827.975,1831.41,1810.325,1814.18,34039,20.19542818836220
1627851600,1814.18,1819.56,1805.875,1813.494,39741,19.73039760347920
1627938000,1813.494,1815.065,1807.175,1810.45,29274,18.8846549175164
1628024400,1810.45,1831.77,1806.456,1811.86,45641,19.34389385197950
1628110800,1811.86,1814.925,1797.9,1804.156,37061,19.178258576838100
1628197200,1804.156,1804.965,1758.8,1763.085,60017,21.10588296420680
1628456400,1763.085,1764.675,1677.686,1729.675,114997,25.811819895334900
1628542800,1729.675,1738.33,1717.785,1729.125,50907,25.435618474239500
1628629200,1729.125,1754.534,1724.2,1751.55,59355,25.785502868936700
1628715600,1751.55,1758.2,1741.655,1752.61,46953,25.125466949727000
1628802000,1752.61,1780.095,1751.745,1779.9,36758,25.35579073903220
1629061200,1779.9,1789.3,1770.876,1787.2,44107,24.86066282910130
1629147600,1787.2,1795.6,1780.67,1786.07,53037,24.151329769879800
1629234000,1786.07,1793.833,1777.43,1787.326,56962,23.597877643459800
1629320400,1787.326,1792.548,1774.215,1779.936,61607,23.22181495464130
1629406800,1779.936,1788.495,1778.42,1781.24,46080,22.28275674359540
1629666000,1781.24,1806.445,1776.559,1805.445,49296,22.82584554762430
1629752400,1805.445,1809.61,1800.765,1803.075,40050,21.827213722794000
1629838800,1803.075,1803.125,1782.534,1790.57,51083,21.73891274259440
1629925200,1790.57,1798.275,1780.138,1791.99,52543,21.48163326098060
1630011600,1791.99,1819.22,1784.96,1817.425,63681,22.39437374233910
1630270800,1817.425,1823.275,1807.785,1810.36,34936,21.90120418931490
1630357200,1810.36,1819.245,1801.72,1813.795,47684,21.588618175792400
1630443600,1813.795,1820.075,1808.735,1814.145,44047,20.856574020378600
1630530000,1814.145,1817.185,1804.9,1809.565,30267,20.244318733208700
1630616400,1809.565,1834.04,1809.05,1827.8,53334,20.583295966551000
1630875600,1827.8,1830.305,1821.506,1823.34,16515,19.74156054036870
1630962000,1823.34,1827.325,1792.46,1794.32,46302,20.82180621605670
1631048400,1794.32,1802.18,1782.47,1789.245,46648,20.74239148633840
1631134800,1789.245,1801.06,1783.905,1794.42,47393,20.486149237314200
1631221200,1794.42,1803.92,1787.33,1787.55,42398,20.207852863220300
1631480400,1787.55,1798.47,1783.8,1793.475,34413,19.81229194441890
1631566800,1793.475,1808.66,1780.6,1804.63,53869,20.401413948389000
1631653200,1804.63,1806.99,1790.705,1793.705,45917,20.107384380646900
1631739600,1793.705,1796.25,1745.355,1753.5,73489,22.306499782029300
1631826000,1753.5,1767.555,1747.396,1754.95,50971,22.15310694045580
1632085200,1754.95,1767.206,1742.08,1764.244,47087,22.36545644470890
1632171600,1764.244,1781.835,1758,1774.365,39462,22.47042384151540
1632258000,1774.365,1787.32,1764.765,1768.13,73426,22.476464995692900
1632344400,1768.13,1776.635,1737.84,1742.31,70037,23.642074638857700
1632430800,1742.31,1757.65,1740.515,1750.465,43041,23.177283593225000
1632690000,1750.465,1760.91,1744.885,1750.255,46440,22.666406193708900
1632776400,1750.255,1754.545,1728.19,1734.075,67847,22.929877179872600
1632862800,1734.075,1745.53,1721.71,1726.605,52779,22.99345738131020
1632949200,1726.605,1764.24,1722.29,1757.04,56714,24.347496139788100
1633035600,1757.04,1764.35,1749.71,1760.92,57652,23.65410355837460
1633294800,1760.92,1770.58,1747.785,1769.47,51465,23.592739018490700
1633381200,1769.47,1770.15,1748.68,1759.956,46683,23.441114802884200
1633467600,1759.956,1765.06,1745.99,1762.825,56039,23.128892316963900
1633554000,1762.825,1766.985,1752.03,1755.18,41451,22.545042865752200
1633640400,1755.18,1781.405,1753.45,1757.17,60204,22.93146837534140
1633899600,1757.17,1761.095,1750.245,1754.306,31488,22.068506348531300
1633986000,1754.306,1769.42,1750.805,1760.125,46946,21.82182732363620
1634072400,1760.125,1796.24,1757.89,1793.05,60380,23.002411086233600
1634158800,1793.05,1800.645,1786.77,1795.975,37882,22.350453151502600
1634245200,1795.975,1796.494,1764.86,1767.475,48304,23.013563640681000
1634504400,1767.475,1772.105,1760.375,1764.87,54726,22.207594809203800
1634590800,1764.87,1785.16,1762.955,1769.55,45535,22.20740946568920
1634677200,1769.55,1788.47,1766.94,1781.93,43624,22.159023075282900
1634763600,1781.93,1789.465,1776.555,1782.974,46754,21.498378569905500
1634850000,1782.974,1813.845,1782.88,1792.525,59565,22.17456581491230
1635109200,1792.525,1810.075,1792.286,1807.77,42895,21.861311113847100
1635195600,1807.77,1808.366,1782.465,1792.815,40667,22.149860320000900
1635282000,1792.815,1799.06,1783.575,1796.965,47279,21.67379886857220
1635368400,1796.965,1810.506,1792.425,1798.815,62585,21.417170377959900
1635454800,1798.815,1801.265,1771.98,1783.35,66247,21.979158208105700
1635714000,1783.35,1795.84,1779.17,1793.235,37863,21.599932621812400
1635800400,1793.235,1796.436,1786.45,1788,40325,20.77036600596860
1635886800,1788,1788.285,1758.89,1769.69,65614,21.386411291256600
1635973200,1769.69,1798.95,1769.645,1791.78,49706,21.952024770452600
1636059600,1791.78,1818.36,1785.06,1818.17,60851,22.762594429705900
1636322400,1818.17,1826.515,1812.495,1824.22,41143,22.138123399012700
1636408800,1824.22,1832.76,1819.19,1831.91,45955,21.526114584797500
1636495200,1831.91,1868.626,1822.4,1849.27,70731,23.290392114454800
1636581600,1849.27,1866.025,1842.95,1861.95,42780,23.275006963422300
1636668000,1861.95,1868.76,1845.3,1864.9,51914,23.288220751749300
1636927200,1864.9,1870.576,1856.375,1862.744,42532,22.639133555195800
1637013600,1862.744,1877.14,1849.77,1850.73,61029,22.977052586967500
1637100000,1850.73,1868.126,1849.675,1867.41,42701,22.653763116469800
1637186400,1867.41,1870.945,1855.205,1858.845,48891,22.15992289386490
1637272800,1858.845,1865.836,1843.09,1845.885,66200,22.201785544303100
1637532000,1845.885,1849.165,1802.31,1804.8,74035,23.96272943399570
1637618400,1804.8,1812.43,1782.04,1789.076,73796,24.421820188710300
1637704800,1789.076,1796.456,1778.615,1788.575,60536,23.951761603802400
1637791200,1788.575,1795.146,1786.12,1788.54,17799,22.885635774959400
1637877600,1788.54,1815.57,1780.41,1793.035,70850,23.76237607674800
1638136800,1793.035,1799.495,1769.8,1784.84,63512,24.18613492840890
1638223200,1784.84,1808.86,1769.975,1774.68,101246,25.23605386209390
1638309600,1774.68,1794.7,1772.304,1781.96,77121,25.033192871944400
1638396000,1781.96,1783.455,1761.94,1768.245,60683,24.78189338109120
1638482400,1768.245,1786.125,1766.21,1783.795,68066,24.434258139584700
1638741600,1783.795,1787.784,1775.765,1778.59,36714,23.547453986757200
1638828000,1778.59,1787.875,1772.25,1784.06,34880,22.98156441627450
1638914400,1784.06,1793.155,1779.715,1782.765,38865,22.300024100826400
1639000800,1782.765,1787.67,1773.31,1775.31,36618,21.73287952219590
1639087200,1775.31,1789.534,1770.215,1782.87,39262,21.560459556324800
1639346400,1782.87,1791.656,1781.89,1786.705,27144,20.71799815944440
1639432800,1786.705,1789.545,1766.585,1770.526,36281,20.878141148055600
1639519200,1770.526,1780.935,1753.07,1777.22,55597,21.377202494623000
1639605600,1777.22,1799.686,1775.6,1799.226,40863,21.570688030721400
1639692000,1799.226,1814.305,1795.835,1798.16,34914,21.34921031424130
1639951200,1798.16,1804.175,1788.385,1790.62,30905,20.952123863224000
1640037600,1790.62,1800.51,1784.905,1788.955,30969,20.570186444422300
1640124000,1788.955,1805.05,1785.95,1803.59,23212,20.46517312696360
1640210400,1803.59,1810.744,1798.91,1808.47,22058,19.848660760751900
1640556000,1808.47,1813.515,1803.015,1812.075,20010,19.18089927784100
1640642400,1812.075,1820.305,1805.095,1806.06,22480,18.89726361513810
1640728800,1806.06,1807.756,1789.494,1804.12,28310,18.85188764262830
1640815200,1804.12,1817.196,1796.28,1814.76,24236,18.99932423958340
1640901600,1814.76,1830.385,1814.525,1828.775,26152,18.775086793898800
1641160800,1828.775,1831.835,1798.38,1801.19,36976,19.823652022906100
1641247200,1801.19,1816.81,1798.51,1814.5,36019,19.714819735555600
1641333600,1814.5,1829.63,1808.33,1810.31,38414,19.82804689730170
1641420000,1810.31,1811.58,1786.42,1790.85,49457,20.208900690351500
1641506400,1790.85,1798.705,1782.675,1796.58,44346,19.91040778389790
1641765600,1796.58,1802.37,1790.436,1801.78,34543,19.340664370762300
1641852000,1801.78,1823.35,1800.195,1821.63,33631,19.61311691570780
1641938400,1821.63,1828.095,1814.78,1826.255,33668,19.163251421728700
1642024800,1826.255,1828.18,1812.425,1822.86,30167,18.919804891605200
1642111200,1822.86,1829.21,1814.75,1817.93,37062,18.60124739934770
1642370400,1817.93,1823.21,1813.205,1819.33,13765,17.987229727965800
1642456800,1819.33,1822.796,1805.84,1813.82,45914,17.9135704616825
1642543200,1813.82,1843.375,1810.345,1840.635,36697,18.993315428705200
1642629600,1840.635,1847.946,1836,1839.475,36057,18.48993575522620
1642716000,1839.475,1843.245,1828.55,1834.65,40613,18.21886891556720
1642975200,1834.65,1844.376,1829.765,1843.086,45015,17.961163993026700
1643061600,1843.086,1853.885,1834.955,1848.02,39850,18.030366564953400
1643148000,1848.02,1850.115,1814.98,1819.38,57778,19.252126096028100
1643234400,1819.38,1822.18,1791.86,1796.985,56904,20.042688517740400
1643320800,1796.985,1799.44,1780.33,1791.655,50841,19.976067909330400
1643580000,1791.655,1799.88,1785.61,1797.166,36704,19.568491630092500
1643666400,1797.166,1808.79,1795.815,1801.005,40579,19.097527942228800
1643752800,1801.005,1811.026,1794.534,1806.85,33066,18.91141880349810
1643839200,1806.85,1809.03,1788.685,1804.9,48972,19.013817460391100
1643925600,1804.9,1814.95,1792.23,1807.97,50914,19.278544784648900
1644184800,1807.97,1823.59,1807.934,1820.395,33461,19.019791585745400
1644271200,1820.395,1828.805,1815.495,1826.11,25213,18.61194932962080
1644357600,1826.11,1835.845,1824.76,1833.195,24373,18.0743100917907
1644444000,1833.195,1841.965,1821.67,1826.725,58489,18.232930799519900
1644530400,1826.725,1865.465,1820.99,1858.98,71512,20.107364313839900
1644789600,1858.98,1874.19,1850.845,1871.66,349258,20.338624005708500
1644876000,1871.66,1879.55,1844.61,1853.655,340069,21.381579433872200
1644962400,1853.655,1872.6,1850.32,1869.49,202603,21.445752331452700
1645048800,1869.49,1901.16,1867.89,1898.205,461084,22.29034145063470
1645135200,1898.205,1902.545,1886.664,1897.295,268981,21.83253134701790
1645394400,1897.295,1908.325,1887.665,1904.035,233631,21.74877910794520
1645480800,1904.035,1914.32,1891.47,1898.405,451088,21.82743774309200
1645567200,1898.405,1910.5,1889.68,1909.075,187190,21.755477904299700
1645653600,1909.075,1974.485,1878.095,1904.015,1121977,27.086515196849700
1645740000,1904.015,1921.91,1882.995,1889.324,729861,27.93140696850330
1645999200,1889.324,1927.48,1889.324,1909.525,752341,28.66173504218170
1646085600,1909.525,1950.306,1901.47,1945.675,564070,30.102753967740100
1646172000,1945.675,1948.01,1913.75,1928.555,811982,30.399700112901500
1646258400,1928.555,1941.295,1922.11,1936.47,563967,29.59865010483710
1646344800,1936.47,1970.95,1929.715,1970.84,795158,30.429817954491600
1646604000,1970.84,2002.67,1961.075,1997.585,1363152,31.227330957742200
1646690400,1997.585,2070.63,1981.105,2050.05,1964988,35.39145017504640
1646776800,2050.05,2059.245,1976.16,1992.505,1387238,38.798132305400200
1646863200,1992.505,2009.225,1970.525,1996.255,1121466,38.79112285501450
1646949600,1996.255,1999.026,1958.68,1988.52,795274,38.9021855082277
1647205200,1988.52,1988.52,1949.744,1950.505,633804,38.89317225764000
1647291600,1950.505,1954.725,1907.086,1917.7,673770,39.517874239237100
1647378000,1917.7,1929.615,1895.065,1927.385,684951,39.16302607929160
1647464400,1927.385,1949.865,1923.39,1942.385,533866,38.25673850219940
1647550800,1942.385,1945.41,1918.01,1920.575,483917,37.4812571806137
1647810000,1920.575,1941.53,1918.026,1935.76,414236,36.48288166771270
1647896400,1935.76,1938.485,1910.73,1921.04,398972,35.859461548590400
1647982800,1921.04,1948.39,1915.64,1944.625,334068,35.63735715226250
1648069200,1944.625,1966.206,1937.505,1957.88,477015,35.14190306995800
1648155600,1957.88,1964.38,1943.195,1958.02,429097,34.14498142210390
1648414800,1958.02,1958.47,1917.13,1922.8,604841,34.65891132052500
1648501200,1922.8,1929.455,1890.155,1919.505,654088,34.99041765477320
1648587600,1919.505,1938.62,1916.01,1932.58,506347,34.10610210800370
1648674000,1932.58,1949.86,1919.27,1937.1,544834,33.85495195743200
1648760400,1937.1,1939.62,1918.1,1925,518202,32.97388396047260
1649019600,1925,1936.94,1915.57,1932.57,419187,32.145035106153100
1649106000,1932.57,1944.636,1917.955,1923.215,486174,31.754746884285000
1649192400,1923.215,1933.58,1915.08,1925.88,589475,30.807979249693300
1649278800,1925.88,1937.85,1920.625,1931.676,456541,29.837766446143700
1649365200,1931.676,1948.22,1927.775,1947.68,418384,29.166854557133500
1649624400,1947.68,1970.026,1940.035,1954.275,564221,29.225722088766800
1649710800,1954.275,1978.685,1949.755,1966.585,502077,29.20459908242630
1649797200,1966.585,1981.566,1962.955,1977.835,378469,28.447913433681600
1649883600,1977.835,1980.435,1960.6,1973.395,389689,27.832705331275700
1650229200,1973.395,1998.46,1972.086,1978.69,444584,27.728512093327500
1650315600,1978.69,1982.036,1943.66,1949.775,506889,28.489046943804100
1650402000,1949.775,1958.405,1939.404,1957.546,501208,27.811329304960900
1650488400,1957.546,1957.546,1936.824,1951.625,497522,27.304948640320900
1650574800,1951.625,1955.71,1926.636,1932.35,592528,27.431309451726500
1650834000,1932.35,1934.545,1891.56,1898.045,682858,28.54228734803180
1650920400,1898.045,1911.305,1895.79,1905.45,525801,27.611766823172400
1651006800,1905.45,1907.086,1881.395,1885.76,527301,27.474569192945800
1651093200,1885.76,1896.795,1872.215,1894.456,481872,27.267814250592500
1651179600,1894.456,1919.98,1892.595,1896.99,473791,27.276184661264500
1651438800,1896.99,1900.13,1854.48,1862.956,451116,28.588600042602700
1651525200,1862.956,1878.145,1850.47,1867.95,362298,28.52334289670250
1651611600,1867.95,1890.01,1861.48,1881.47,444754,28.52381840408090
1651698000,1881.47,1909.82,1872.545,1877.166,540814,29.14890280378940
1651784400,1877.166,1892.576,1866.145,1883.645,456885,28.954766889233000
1652043600,1883.645,1885.85,1851.78,1854.02,485854,29.320140682859300
1652130000,1854.02,1865.526,1835.53,1838.43,448041,29.368416348369300
1652216400,1838.43,1858.3,1832.075,1852.255,519812,29.143886609200100
1652302800,1852.255,1858.875,1821.395,1821.89,546452,29.739323279971500
1652389200,1821.89,1828.89,1799.16,1811.465,427074,29.738657331402100
1652648400,1811.465,1826.985,1786.785,1824.59,490369,30.4858960934448
1652734800,1824.59,1836.155,1812.91,1814.965,382301,29.968689229627300
1652821200,1814.965,1824.836,1807.315,1816.445,336983,29.079568570368200
1652907600,1816.445,1849.15,1810.905,1842.2,384523,29.734242243913300
1652994000,1842.2,1849.49,1832.405,1846.615,290138,28.83072494077670
1653253200,1846.615,1865.53,1843.54,1853.665,317377,28.342101730721200
1653339600,1853.665,1869.75,1849.37,1866.52,232483,27.773380178526800
1653426000,1866.52,1868.11,1841.605,1853.235,275388,27.682781594346300
1653512400,1853.235,1854.43,1840.756,1850.83,309994,26.68215433760730
1653598800,1850.83,1862.05,1848.055,1853.22,295218,25.775929027778200
1653858000,1853.22,1864.085,1847.84,1855.8,138793,25.09514838293690
1653944400,1855.8,1857.186,1835.2,1837.47,282487,24.873066355584300
1654030800,1837.47,1849.976,1828.54,1846.655,318499,24.627561615899700
1654117200,1846.655,1870.48,1844.15,1868.655,247484,24.749164357621100
1654203600,1868.655,1874.17,1847.375,1851.056,225588,24.895295474933900
1654462800,1851.056,1857.9,1840.665,1842.115,203298,24.348131512438700
1654549200,1842.115,1855.635,1837.065,1852.375,243976,23.935407832978700
1654635600,1852.375,1859.685,1844.59,1853.32,166273,23.30395013062310
1654722000,1853.32,1855.41,1840.1,1847.94,239684,22.73295369272150
1654808400,1847.94,1876.005,1825.14,1871.61,440405,24.742385571812800
1655067600,1871.61,1879.13,1819.105,1819.526,614995,27.262572316683300
1655154000,1819.526,1831.7,1805.205,1808.555,524034,27.207745722634500
1655240400,1808.555,1841.965,1807.605,1833.97,172846,27.71862102816060
1655326800,1833.97,1857.635,1815.66,1856.825,165276,28.736933811863400
1655413200,1856.825,1856.825,1833.905,1840.4,130668,28.321438539587500
1655672400,1840.4,1846.165,1834.86,1838.395,66273,27.105978643902700
1655758800,1838.395,1843.665,1828.635,1833.06,92300,26.24340874076680
1655845200,1833.06,1847.93,1823.455,1837.78,105353,26.11709383071200
1655931600,1837.78,1846.125,1822.605,1822.68,126193,25.931587128518300
1656018000,1822.68,1831.87,1816.98,1827.31,123769,25.142902333624100
1656277200,1827.31,1841.105,1820.85,1822.735,103953,24.793766452651000
1656363600,1822.735,1829.5,1818.485,1820.07,81846,23.809568848890200
1656450000,1820.07,1833.11,1812.095,1817.81,100593,23.609956788255200
1656536400,1817.81,1825.21,1802.775,1807.33,108081,23.526031303379800
1656622800,1807.33,1809.495,1784.575,1809.47,119053,23.62560049599550
1656882000,1809.47,1814.375,1804.02,1808.04,55467,22.67770046056730
1656968400,1808.04,1812.19,1763.925,1764.93,117208,24.50536471338390
1657054800,1764.93,1772.9,1732.34,1739.41,134547,25.652124376713600
1657141200,1739.41,1749.13,1736.58,1740.335,95705,24.71625834980550
1657227600,1740.335,1752.47,1729.985,1742.355,103543,24.556882753390900
1657486800,1742.355,1744.62,1731.325,1733.985,79685,23.752462556720100
1657573200,1733.985,1744.336,1723.27,1726.235,100499,23.560572374097200
1657659600,1726.235,1745.425,1707.16,1735.66,139818,24.61088863309030
1657746000,1735.66,1736.605,1697.64,1710.03,148089,25.636182302155200
1657832400,1710.03,1716.675,1699.12,1707.46,114463,25.05895499485840
1658091600,1707.46,1723.99,1706.095,1709.28,91273,24.54724392379710
1658178000,1709.28,1718.48,1705.445,1711.575,83423,23.724940786383000
1658264400,1711.575,1714.535,1692.475,1696.835,79234,23.606016444498500
1658350800,1696.835,1720.25,1680.935,1719.16,104791,24.72808669846290
1658437200,1719.16,1739.355,1712.96,1727.66,95148,24.847151934287000
1658696400,1727.66,1736.3,1714.8,1719.875,81598,24.60806965326650
1658782800,1719.875,1728.225,1713.705,1717.465,75610,23.88749324946180
1658869200,1717.465,1740.34,1711.56,1734.625,92012,24.236958017357300
1658955600,1734.625,1757.065,1734.185,1756.11,130871,24.140032444689000
1659042000,1756.11,1767.99,1752.415,1766.26,110236,23.52824441292550
1659301200,1766.26,1775.38,1758.405,1772.12,98885,23.060155526288000
1659387600,1772.12,1788.12,1760.515,1760.91,116469,23.384787274410200
1659474000,1760.91,1772.835,1754.35,1765.37,88720,23.034802469095200
1659560400,1765.37,1794.96,1763.335,1790.966,78513,23.64838800701700
1659646800,1790.966,1794.945,1765.05,1775.8,97224,24.094574577944300
1659906000,1775.8,1790.045,1771.22,1789.24,75301,23.718176393805500
1659992400,1789.24,1800.47,1783.31,1794.4,70681,23.249735222819400
1660078800,1794.4,1807.96,1787.606,1792.285,98223,23.042896992618000
1660165200,1792.285,1799.42,1783.59,1789.505,89468,22.527690064573900
1660251600,1789.505,1802.18,1784.965,1802.025,78677,22.14821220281860
1660510800,1802.025,1802.375,1773.055,1779.56,82034,22.660482759760100
1660597200,1779.56,1783.195,1771.52,1775.825,69076,21.875805419777200
1660683600,1775.825,1782.4,1759.86,1762.24,92091,21.92324788979320
1660770000,1762.24,1772.465,1755.49,1758.42,85226,21.569801611950800
1660856400,1758.42,1759.355,1745.585,1747.5,77294,21.012672925382900
1661115600,1747.5,1749.09,1727.85,1735.88,89142,21.028910573569800
1661202000,1735.88,1754.11,1730.9,1747.98,90678,21.184702675457700
1661288400,1747.98,1755.94,1742.515,1751.485,85457,20.63043819863930
1661374800,1751.485,1765.575,1749.995,1758.43,82790,20.269692613022200
1661461200,1758.43,1758.835,1734.265,1738.05,107052,20.576857426377700
1661720400,1738.05,1745.555,1720.405,1737.535,92986,20.903510467350800
1661806800,1737.535,1740.61,1721.215,1724.355,90849,20.79575971968290
1661893200,1724.355,1726.595,1709.675,1711.04,102679,20.518919739705500
1661979600,1711.04,1711.47,1688.915,1697.33,109977,20.66435404401230
1662066000,1697.33,1718.015,1695.07,1712.665,72579,20.827257326582800
1662325200,1712.665,1715.84,1707.795,1710.155,46672,19.914238946112600
1662411600,1710.155,1726.795,1699.88,1701.86,96042,20.41429330710460
1662498000,1701.86,1719.505,1691.46,1718.445,84540,20.95934378516850
1662584400,1718.445,1728.235,1704,1708.74,111952,21.19331922908510
1662670800,1708.74,1729.566,1708.595,1717.235,87321,21.177439284150400
1662930000,1717.235,1735.18,1712.04,1724.635,86525,21.317622192425400
1663016400,1724.635,1731.835,1697.115,1702.435,100612,22.27493489296640
1663102800,1702.435,1707.15,1693.67,1697.47,100890,21.64672525775460
1663189200,1697.47,1698.32,1660.435,1664.41,99707,22.806602025057800
1663275600,1664.41,1680.44,1654.19,1675.505,93957,23.052559023268000
1663534800,1675.505,1680.015,1659.75,1675.7,70055,22.853447664463100
1663621200,1675.7,1679.495,1660.03,1664.845,71504,22.61141568843000
1663707600,1664.845,1688.125,1653.87,1673.8,119812,23.443100282113600
1663794000,1673.8,1684.95,1655.715,1671.335,165919,23.85680740481980
1663880400,1671.335,1675.915,1639.745,1643.925,135455,24.736321161618400
1664139600,1643.925,1649.84,1621.205,1622.845,168541,25.014798221502800
1664226000,1622.845,1642.51,1622.845,1629.49,129013,24.63266977710970
1664312400,1629.49,1662.785,1614.925,1659.995,174988,26.291764793030500
1664398800,1659.995,1664.895,1641.575,1660.85,142394,26.079495879242600
1664485200,1660.85,1675.43,1659.32,1660.95,145095,25.367389030725300
1664744400,1660.95,1701.53,1659.695,1699.795,138190,26.543646957102000
1664830800,1699.795,1729.59,1695.24,1726.465,131946,27.101243603023300
1664917200,1726.465,1727.84,1700.59,1716.445,123662,27.11186905995020
1665003600,1716.445,1725.6,1706.955,1712.74,120952,26.50709269852520
1665090000,1712.74,1714.85,1690.695,1695,127040,26.339086077202000
1665349200,1695,1699.915,1665.77,1668.25,95519,26.896651357401800
1665435600,1668.25,1684.04,1661.03,1666.215,127343,26.619033403301700
1665522000,1666.215,1678.37,1661.47,1673.205,130410,25.924816731637300
1665608400,1673.205,1682.495,1642.465,1666.135,128124,26.93232982223460
1665694800,1666.135,1671.825,1640.27,1644.45,121730,27.262520549217900
1665954000,1644.45,1668.53,1644.17,1650.76,87442,27.05519765284520
1666040400,1650.76,1660.936,1645.915,1652.075,109812,26.19561210621340
1666126800,1652.075,1654.475,1627.725,1628.98,91501,26.235211241483800
1666213200,1628.98,1645.675,1622.545,1628.215,90333,26.013410438520700
1666299600,1628.215,1657.955,1617.28,1657.62,139942,27.060666835769200
1666558800,1657.62,1670.785,1644.005,1649.59,117018,27.040619204642800
1666645200,1649.59,1662.445,1638.355,1653,80026,26.82986069002550
1666731600,1653,1675.005,1649.82,1665.215,85264,26.71237064073800
1666818000,1665.215,1670.845,1654.89,1663.395,101127,25.943987023542400
1666904400,1663.395,1667.11,1638.12,1644.385,96069,26.161559379003600
1667163600,1644.385,1645.74,1631.805,1633.69,53632,25.28823370907480
1667250000,1633.69,1657.06,1630.795,1647.945,82792,25.358002729855200
1667336400,1647.945,1669.535,1634.785,1635.305,94156,26.02885967772270
1667422800,1635.305,1641.03,1616.675,1629.555,84142,25.909298272171000
1667509200,1629.555,1681.755,1628.735,1680.915,100030,27.845776967016000
1667772000,1680.915,1681.945,1666.94,1675.435,68483,26.92857861222910
1667858400,1675.435,1716.97,1664.76,1712.585,79690,28.73439442564130
1667944800,1712.585,1722.345,1702.255,1706.625,101162,28.116937680952700
1668031200,1706.625,1757.32,1703.96,1755.655,104778,29.920013560884600
1668117600,1755.655,1772.935,1747.31,1771.295,110776,29.613226877964300
1668376800,1771.295,1775.09,1753.315,1771.495,88282,29.053353529538200
1668463200,1771.495,1786.545,1767.13,1778.28,127162,28.364899705999800
1668549600,1778.28,1785.095,1770.385,1773.71,94214,27.38954972699980
1668636000,1773.71,1774.885,1754.51,1760.57,86275,26.88851046078550
1668722400,1760.57,1767.735,1747.555,1750.87,67706,26.40933114215800
1668981600,1750.87,1753.065,1732.595,1738.185,51600,25.98509320343240
1669068000,1738.185,1749.795,1737.095,1740,40745,25.036157974615800
1669154400,1740,1753.465,1727.495,1749.6,60716,25.102860976429000
1669240800,1749.6,1758.705,1749.335,1755.79,37717,23.979085192398300
1669327200,1755.79,1761.155,1746.02,1753.555,40047,23.347364821512700
1669586400,1753.555,1763.775,1739.675,1741.785,57996,23.40112447711900
1669672800,1741.785,1759.035,1740.24,1749.575,51669,23.0721155858962
1669759200,1749.575,1770.01,1744.95,1768.235,69923,23.214107329760800
1669845600,1768.235,1804.115,1768.235,1803.04,76259,24.118813949063600
1669932000,1803.04,1804.63,1778.545,1797.75,70891,24.259255809844700
1670191200,1797.75,1810.01,1765.91,1768.825,66549,25.676451823427300
1670277600,1768.825,1780.92,1767.365,1771.005,48533,24.810633836039600
1670364000,1771.005,1790.585,1768.825,1786.145,57478,24.59273141917960
1670450400,1786.145,1794.885,1781.49,1789.095,48402,23.79289346066680
1670536800,1789.095,1806.16,1788.54,1797.46,59735,23.351972499190600
1670796000,1797.46,1797.46,1777.685,1781.41,40487,23.096474463534100
1670882400,1781.41,1824.515,1781.025,1810.77,75705,24.55315485899600
1670968800,1810.77,1814.265,1795.495,1807.44,79335,24.140072369067700
1671055200,1807.44,1808.7,1773.845,1776.875,77722,24.905424342705700
1671141600,1776.875,1794.3,1774.365,1793.155,55133,24.550394032512500
1671400800,1793.155,1798.775,1783.905,1787.715,42917,23.858937315904400
1671487200,1787.715,1821.14,1784.695,1817.89,83849,24.757941793339800
1671573600,1817.89,1823.865,1811.925,1814.64,47261,23.842374522387
1671660000,1814.64,1820.46,1784.85,1792.63,56279,24.682919199359400
1671746400,1792.63,1803.24,1791.25,1798.425,53125,23.776282113690800
1672092000,1798.425,1833.445,1798.425,1813.91,54855,24.579404819855800
1672178400,1813.91,1814.645,1797.1,1804.3,53633,24.076947332723200
1672264800,1804.3,1820.205,1804.18,1814.985,47045,23.5018082375287
1672351200,1814.985,1826.14,1813.4,1823.79,74918,22.733107649133800
1672696800,1823.79,1849.99,1823.79,1839.7,100770,22.98074281705280
1672783200,1839.7,1865.215,1836.24,1854.65,76233,23.408904044406200
1672869600,1854.65,1858.995,1825.13,1832.7,66836,24.15576804123430
1672956000,1832.7,1869.92,1831.42,1866.11,77133,25.18035603828900
1673215200,1866.11,1881.55,1866.11,1871.705,60521,24.48461632126830
1673301600,1871.705,1880.795,1867.93,1876.99,60283,23.654643726892000
1673388000,1876.99,1886.695,1867.22,1875.965,65959,23.356097746399700
1673474400,1875.965,1901.705,1870.3,1896.785,86288,23.93101933594260
1673560800,1896.785,1921.91,1892.395,1920.315,66075,24.329875097661000
1673820000,1920.315,1929.06,1910.915,1916.01,42380,23.88809830497090
1673906400,1916.01,1919.095,1903.81,1908.71,58969,23.2735912831873
1673992800,1908.71,1925.945,1896.675,1904.51,79921,23.701906191531100
1674079200,1904.51,1935.21,1901.035,1932.26,59576,24.449984320707400
1674165600,1932.26,1937.58,1920.72,1926.06,60306,23.90784258351400
1674424800,1926.06,1935.59,1911.435,1931.34,58426,23.925496684691600
1674511200,1931.34,1942.555,1917.22,1937.315,48239,24.026175492927900
1674597600,1937.315,1948.1,1919.945,1946.325,66017,24.32109152914730
1674684000,1946.325,1949.26,1918.695,1929.215,69317,24.767084991351100
1674770400,1929.215,1935.05,1916.745,1927.73,54335,24.305507491968900
1675029600,1927.73,1934.565,1920.745,1923.2,44861,23.556542671114000
1675116000,1923.2,1931.19,1900.87,1928.235,58763,24.03964676603440
1675202400,1928.235,1954.645,1920.58,1950.145,83262,24.75574342560340
1675288800,1950.145,1959.77,1911.375,1912.69,85620,26.444261752346000
1675375200,1912.69,1918.65,1861.43,1865.695,97515,28.642528770035600
1675634400,1865.695,1881.405,1862.13,1867.695,62641,27.97341957217590
1675720800,1867.695,1884.41,1865.05,1871.885,80008,27.35817531702050
1675807200,1871.885,1886.515,1869.16,1875.55,58339,26.643662794376200
1675893600,1875.55,1890.25,1858.975,1861.78,59722,26.974472594777900
1675980000,1861.78,1872.21,1852.835,1865.35,66271,26.431653123722300
1676239200,1865.35,1866.64,1850.525,1853.74,43393,25.694749329170700
1676325600,1853.74,1870.8,1843.26,1854.435,97140,25.82655294851570
1676412000,1854.435,1860.19,1830.62,1836.005,67909,26.093942023621700
1676498400,1836.005,1845.32,1827.665,1836.52,60769,25.491160450505900
1676584800,1836.52,1843.685,1818.975,1842.565,57762,25.435363275469700
1676844000,1842.565,1847.57,1837.36,1843.76,29521,24.347837327221900
1676930400,1843.76,1843.905,1830.29,1834.915,51231,23.58120608956320
1677016800,1834.915,1846.07,1823.56,1825.305,51795,23.504691368880100
1677103200,1825.305,1833.9,1817.55,1822.3,51711,22.99364198538870
1677189600,1822.3,1827.885,1809.01,1810.985,65299,22.69945327214660
1677448800,1810.985,1820.2,1806.705,1817.25,42639,22.041992324136200
1677535200,1817.25,1831.175,1804.685,1826.67,42265,22.35970715812640
1677621600,1826.67,1844.83,1823.15,1836.65,49931,22.31115664683170
1677708000,1836.65,1839.03,1830.05,1835.94,41289,21.35893117205800
1677794400,1835.94,1856.39,1835.94,1855.435,37695,21.294007516911000
1678053600,1855.435,1858.31,1845.225,1846.88,31455,20.70764983713160
1678140000,1846.88,1851.705,1812.775,1813.34,44746,22.00924627733650
1678226400,1813.34,1824.305,1809.425,1813.83,38988,21.50001440038390
1678312800,1813.83,1835.725,1811.985,1830.915,35709,21.66001337178510
1678399200,1830.915,1870.245,1827.815,1867.035,70998,23.14358384522900
1678654800,1867.035,1914.695,1867.035,1913.63,131040,24.894756427712600
1678741200,1913.63,1914.225,1895.435,1903.865,83404,24.458702397161700
1678827600,1903.865,1937.39,1885.79,1918.73,131026,26.397366511650200
1678914000,1918.73,1933.54,1907.56,1919.34,93255,26.36755461796090
1679000400,1919.34,1988.335,1918.305,1988.305,95813,29.48630071667790
1679259600,1988.305,2009.85,1965.99,1978.975,138288,30.512993522629500
1679346000,1978.975,1985.22,1935.465,1940.52,80572,31.887422556727400
1679432400,1940.52,1978.915,1934.345,1970.015,95641,32.793320945532600
1679518800,1970.015,2003.36,1964.615,1993.495,90866,33.21844087799450
1679605200,1993.495,2003.08,1975.325,1978.965,104846,32.82819510099490
1679864400,1978.965,1978.965,1944.045,1956.45,67400,32.97760973663810
1679950800,1956.45,1975.365,1949.245,1974.035,51915,32.487780469735400
1680037200,1974.035,1974.46,1958.755,1964.505,42937,31.28901043618290
1680123600,1964.505,1984.365,1955.41,1980.425,44014,31.122295405026900
1680210000,1980.425,1987.645,1966.935,1969.31,45696,30.37856001895360
1680469200,1969.31,1990.545,1949.81,1984.385,66546,31.11830573188550
1680555600,1984.385,2025.07,1977.035,2020.465,52318,32.32664103675080
1680642000,2020.465,2032.11,2010.09,2020.65,50955,31.59045239126860
1680728400,2020.65,2021.485,2000.89,2007.86,49143,30.805062934749400
1681074000,2007.86,2007.86,1981.68,1991.195,66635,30.474701296553000
1681160400,1991.195,2007.495,1988.875,2003.64,40748,29.62793691822780
1681246800,2003.64,2028.4,2001.22,2014.95,66829,29.453084281211500
1681333200,2014.95,2048.77,2014.175,2040.46,54462,29.820363975410700
1681419600,2040.46,2047.505,1992.5,2004.275,71842,31.61926654859570
1681678800,2004.275,2015.075,1981.19,1995.055,61121,31.78110465226740
1681765200,1995.055,2011.89,1991.32,2005.075,49962,30.980311462819700
1681851600,2005.075,2008.255,1969.305,1994.75,51668,31.549574929761200
1681938000,1994.75,2012.445,1990.565,2004.605,54408,30.858891006206800
1682024400,2004.605,2005.62,1971.695,1982.92,68455,31.077898791477700
1682283600,1982.92,1990.845,1974.155,1989.05,52264,30.050191734943600
1682370000,1989.05,2003.89,1976.185,1997.04,83782,29.882678039590500
1682456400,1997.04,2009.45,1983.375,1989.235,102567,29.61070103676260
1682542800,1989.235,2003.415,1974.115,1987.8,90833,29.588508105565300
1682629200,1987.8,1995.14,1976.265,1989.535,91849,28.823257526596300
1682888400,1989.535,2006.07,1977.12,1982.55,92283,28.832310560410900
1682974800,1982.55,2019.455,1978.52,2016.6,81795,29.6967883775244
1683061200,2016.6,2040.495,2008.025,2039.565,88496,29.89487492198690
1683147600,2039.565,2067,2030.39,2050.31,158198,30.37452671327360
1683234000,2050.31,2053.045,1999.585,2016.79,99893,32.02348909089690
1683493200,2016.79,2029.4,2014.305,2021.355,57904,30.81431129869000
1683579600,2021.355,2037.655,2019.55,2034.535,63973,29.90650334878350
1683666000,2034.535,2048.245,2021.565,2029.74,90192,29.676038823870400
1683752400,2029.74,2041.39,2011.185,2015.03,112821,29.71382176502250
1683838800,2015.03,2022.58,2000.96,2011.025,98231,29.135691638949500
1684098000,2011.025,2022.115,2007.845,2016.365,70894,28.07385652188170
1684184400,2016.365,2018.39,1985.53,1988.885,90207,28.415723913175800
1684270800,1988.885,1993.12,1975.095,1982.01,67870,27.673529347949000
1684357200,1982.01,1986.07,1952.01,1957.685,95953,28.129705823095500
1684443600,1957.685,1984.325,1954.13,1977.895,106304,28.27722683573150
1684702800,1977.895,1982.67,1968.905,1971.72,72635,27.240639204607800
1684789200,1971.72,1977.805,1954.3,1975.115,77592,26.973807832850200
1684875600,1975.115,1985.39,1956.77,1957.225,78959,27.09139298764660
1684962000,1957.225,1964.785,1938.915,1940.595,71543,27.004150631386100
1685048400,1940.595,1957.36,1936.815,1946.93,70979,26.542782729144200
1685307600,1946.93,1970,1940.385,1970,37314,26.762226819919700
1685394000,1970,1970,1932.11,1959.48,75804,27.557067761354000
1685480400,1959.48,1974.835,1953.7,1962.615,69234,27.098348635543000
1685566800,1962.615,1983.18,1953.445,1977.54,66617,27.286680875861300
1685653200,1977.54,1983.505,1947.68,1948.1,62360,27.89656081329980
1685912400,1948.1,1950.205,1945.73,1947.07,7791,26.2235921837784